v,f(v)
0,indeterminado
100000000000,1.0045135811624889780700355452352650912318428162878E-14
200000000000,4.0152982559356945249982176943871228843931494204379E-14
300000000000,9.0282227588618369935881202784205238537629351623138E-14
400000000000,1.6039159607963206426808498800842627613479596637088E-13
500000000000,2.5043985104733262156495301761140858280200248317182E-13
600000000000,3.6038579334124172272801344437704180394321314009253E-13
700000000000,4.9018826164530792995660344185318953276665984978006E-13
800000000000,6.3980613247771087988465131926308880741090419797611E-13
900000000000,8.0919832019062987663092799917931322087202639364955E-13
1000000000000,9.9832377696997688534342283237161335153302757290334E-13
1100000000000,1.2071414928350939269078236391420713359872842420498E-12
1200000000000,1.4356104956384148745794029444626535537716804010412E-12
1300000000000,1.6836898510650916533869312371318044864650697335925E-12
1400000000000,1.9513386626325848432465533527887520304411491536832E-12
1500000000000,2.2385160716902186868128753788097864818318326529945E-12
1600000000000,2.5451812574187005031838164277279410475238568203453E-12
1700000000000,2.8712934368296045086650818467615341557653948226691E-12
1800000000000,3.2168118647648200458894115462328817508808179970606E-12
1900000000000,3.5816958338959642226750487610631267297418551351164E-12
2000000000000,3.9659046747237589620971603291339361170207969258750E-12
2100000000000,4.3693977555773724653352191001399263891639798676158E-12
2200000000000,4.7921344826137250889486320006843743057316217225966E-12
2300000000000,5.2340742998167596383221631979038443208362265291955E-12
2400000000000,5.6951766889966760791119603469974822763425555662973E-12
2500000000000,6.1754011697891306686122426998828045638323727945622E-12
2600000000000,6.6747072996543995090519525150493848890901012869425E-12
2700000000000,7.1930546738765065249199053648334248994121708154674E-12
2800000000000,7.7304029255623158665062002081416610801596423678664E-12
2900000000000,8.2867117256405887419368661065199999994130887972737E-12
3000000000000,8.8619407828610046800679288318563664147120358122201E-12
3100000000000,9.4560498437931472266942769674546274788192526560157E-12
3200000000000,1.0068998692825454076617893063306075141411816674200E-11
3300000000000,1.0700747152164131644209190593770947504537568385378E-11
3400000000000,1.1351255081832034075184361504286538756213685559204E-11
3500000000000,1.2020482379667506702410791645932191864405423201222E-11
3600000000000,1.2708388981323193948641742005568772764179460286071E-11
3700000000000,1.3414934860264811679170621967769615539301735070461E-11
3800000000000,1.4140080027769884007484296515886935696409935912890E-11
3900000000000,1.4883784532926444557083971916447229844968725962441E-11
4000000000000,1.5646008462631702182731293656817839005127043743401E-11
4100000000000,1.6426711941590671154466365843995361128010088683079E-11
4200000000000,1.7225855132314765807833462545782115342310771553119E-11
4300000000000,1.8043398235120359663839248287975351325161949294581E-11
4400000000000,1.8879301488127309022257356736022491847779215369761E-11
4500000000000,1.9733525167257441031982193110515046568097722111727E-11
4600000000000,2.0606029586233006242223826736620470472924564490781E-11
4700000000000,2.1496775096575095638424824931899925009526983645709E-11
4800000000000,2.2405722087602022166868847818845986818537409695698E-11
4900000000000,2.3332830986427666752039775231916133941364155551187E-11
5000000000000,2.4278062257959788810879071297958914314773940724672E-11
5100000000000,2.5241376404898301268178009127961306400503303191900E-11
5200000000000,2.6222733967733510077430276991329156537244547787697E-11
5300000000000,2.7222095524744318251559367975901311455392268910419E-11
5400000000000,2.8239421691996394408024017092160445908079645269044E-11
5500000000000,2.9274673123340305832893792683324950572449592909875E-11
5600000000000,3.0327810510409616068575772478991325100309712531299E-11
5700000000000,3.1398794582618947029962038303671787391023422700784E-11
5800000000000,3.2487586107162005653856506947987821113309245239858E-11
5900000000000,3.3594145889009575086628377654614128023387574013899E-11
6000000000000,3.4718434770907470415128218688624692109345149912970E-11
6100000000000,3.5860413633374458945991436178110276976078495883601E-11
6200000000000,3.7020043394700145038542567451385000480512962851666E-11
6300000000000,3.8197285010942819496602518087484791777557284997178E-11
6400000000000,3.9392099475927273524589516462826800515752113538648E-11
6500000000000,4.0604447821242577253393191344830932624095764691670E-11
6600000000000,4.1834291116239822841589786679130176558785000041824E-11
6700000000000,4.3081590468029832157655112766987945380157838715761E-11
6800000000000,4.4346307021480829048920394160118457292725851327363E-11
6900000000000,4.5628401959216076203104711437840182640874286252867E-11
7000000000000,4.6927836501611476608346246203104710810654088303382E-11
7100000000000,4.8244571906793139617743025766310617409481591500832E-11
7200000000000,4.9578569470634911624502325705967419573000086793497E-11
7300000000000,5.0929790526755871353886324430410999107653588500598E-11
7400000000000,5.2298196446517789778230013642242903607370027257540E-11
7500000000000,5.3683748639022554661395751854489433467635010805507E-11
7600000000000,5.5086408551109559739117204452336214056672364268856E-11
7700000000000,5.6506137667353058541773742864542282179534928264144E-11
7800000000000,5.7942897510059482866224676832297568089236580024667E-11
7900000000000,5.9396649639264725903420967168555069522973895116509E-11
8000000000000,6.0867355652731390028600311416115407544804508469120E-11
8100000000000,6.2354977185945999260959711066515929876333981942757E-11
8200000000000,6.3859475912116176399787816122808193851901873682075E-11
8300000000000,6.5380813542167784844127500406507941883210757952251E-11
8400000000000,6.6918951824742035103127248751466627644189533592324E-11
8500000000000,6.8473852546192556004328034724426147087311003332531E-11
8600000000000,7.0045477530582430607220434393050904140365507380966E-11
8700000000000,7.1633788639681196829494757556947474952732708517689E-11
8800000000000,7.3238747772961812793494982395439558750540214098338E-11
8900000000000,7.4860316867597586900475252297718405637623506531587E-11
9000000000000,7.6498457898459072640345634356688736880192298098012E-11
9100000000000,7.8153132878110928144681747257830322269005251875939E-11
9200000000000,7.9824303856808740490860741709351906531423359817956E-11
9300000000000,8.1511932922495814765273958770688486157925126022974E-11
9400000000000,8.3215982200799927893654400074054076240613417079414E-11
9500000000000,8.4936413855030047246644918629589056077393985173579E-11
9600000000000,8.6673190086173014028820779290125150018678508711269E-11
9700000000000,8.8426273132890191459467943658437808001875689647595E-11
9800000000000,9.0195625271514077753506104879987720765708491254426E-11
9900000000000,9.1981208816044883911033133009712045597967599676775E-11
10000000000000,9.3782986118147076324055191104774605643134892182926E-11
10100000000000,9.5600919567145884209054345508909484482346218949861E-11
10200000000000,9.7434971590023771874133020590906621319611323527296E-11
10300000000000,9.9285104651416875829562138112931979371997242530340E-11
10400000000000,1.0115128125361140675064723406701985005401917586946E-10
10500000000000,1.0303346393654001630191426086372486083923300982864E-10
10600000000000,1.0493161527777812883170415981931529242845898776646E-10
10700000000000,1.0684569789254023794635262760100369185859570962566E-10
10800000000000,1.0877567443367616797321880028776136392546658703467E-10
10900000000000,1.1072150759166730032191383962170783087262020575545E-10
11000000000000,1.1268316009462276475316762749660655531532503431797E-10
11100000000000,1.1466059470827559556485895639058225868398167787171E-10
11200000000000,1.1665377423597885270482174493499977984008011030586E-10
11300000000000,1.1866266151870170782012690875595721308880269271548E-10
11400000000000,1.2068721943502549525262657676474776745666982545811E-10
11500000000000,1.2272741090113972799063436184489149656335905740568E-10
11600000000000,1.2478319887083807858670237202214347825607861240582E-10
11700000000000,1.2685454633551432505154258334672276149996059437378E-10
11800000000000,1.2894141632415826173422708850061214496772341716037E-10
11900000000000,1.3104377190335157519888858520415266474397115638984E-10
12000000000000,1.3316157617726368510822927547256520315939064678080E-10
12100000000000,1.3529479228764755012423311030201037946281422863568E-10
12200000000000,1.3744338341383543883656303408415341148477472402001E-10
12300000000000,1.3960731277273466572921155859601281850022172696658E-10
12400000000000,1.4178654361882329219605962742649608085712399196536E-10
12500000000000,1.4398103924414579261608531782109486141222552210407E-10
12600000000000,1.4619076297830868549905046779064030221002882002668E-10
12700000000000,1.4841567818847612971257981157800063142458543859000E-10
12800000000000,1.5065574827936548580163365584761868612736297866876E-10
12900000000000,1.5291093669324284241146153189660247281340559992684E-10
13000000000000,1.5518120690991850782521061542275292489377928742354E-10
13100000000000,1.5746652244674246662744901456478604247939493814552E-10
13200000000000,1.5976684685859980150495028869372138765838927695844E-10
13300000000000,1.6208214373790608019617177442290074561638982357765E-10
13400000000000,1.6441237671460270760094546115860265753227382222929E-10
13500000000000,1.6675750945615224306198627587526342052676590368640E-10
13600000000000,1.6911750566753368282990870531073809645517606668892E-10
13700000000000,1.7149232909123770772352870307997546583357353037191E-10
13800000000000,1.7388194350726189599731379894238462059894059119281E-10
13900000000000,1.7628631273310590142793024727179264284353662676466E-10
14000000000000,1.7870540062376659663192192131129810885020665779244E-10
14100000000000,1.8113917107173318162664147869189262975466710184843E-10
14200000000000,1.8358758800698225764664009159714621743954988803811E-10
14300000000000,1.8605061539697286622780775151054334003385204202161E-10
14400000000000,1.8852821724664149357164182333154614722025934333470E-10
14500000000000,1.9102035759839704020210713643580236923920636197795E-10
14600000000000,1.9352700053211575592763646062908469415159885231892E-10
14700000000000,1.9604811016513614012090572254884904836291395101018E-10
14800000000000,1.9858365065225380732910377254736253157188498159822E-10
14900000000000,2.0113358618571631822750191309213968500925713098867E-10
15000000000000,2.0369788099521797592921374688923287062955614813152E-10
15100000000000,2.0627649934789458766412119591937821310113551420648E-10
15200000000000,2.0886940554831819184002778102306920316359992582705E-10
15300000000000,2.1147656393849175049918543522562122544880357204161E-10
15400000000000,2.1409793889784380718342625230484880188645680458614E-10
15500000000000,2.1673349484322311022121564482009352886406709089835E-10
15600000000000,2.1938319622889320145002840259035042419354797639032E-10
15700000000000,2.2204700754652697038753410307982732023495966698899E-10
15800000000000,2.2472489332520117386516322897046955409963393985958E-10
15900000000000,2.2741681813139092113771019502217604433947544904909E-10
16000000000000,2.3012274656896412448271427579236258783253443316532E-10
16100000000000,2.3284264327917591530344415755728982631960007489998E-10
16200000000000,2.3557647294066302574939651149862119696724017944613E-10
16300000000000,2.3832420026943813586830360054082521059973818580313E-10
16400000000000,2.4108579001888418630372948879946416969561419805962E-10
16500000000000,2.4386120697974865655241892007866029951972046946263E-10
16600000000000,2.4665041598013780879564736989000946829248434199290E-10
16700000000000,2.4945338188551089731890515370720047217289565778294E-10
16800000000000,2.5227006959867434353433279227324363149463939454175E-10
16900000000000,2.5510044405977587662040909239353878346313876348300E-10
17000000000000,2.5794447024629863979347759843141758791218762883801E-10
17100000000000,2.6080211317305526222578120532705373856026197240035E-10
17200000000000,2.6367333789218189662475879803990206851868268081166E-10
17300000000000,2.6655810949313222248844179452364014943230070358935E-10
17400000000000,2.6945639310267141505187241933586401061762559677417E-10
17500000000000,2.7236815388487007993954942241783904522157836525377E-10
17600000000000,2.7529335704109815353899078210812190113882133891728E-10
17700000000000,2.7823196781001876911058669273393301111166297415887E-10
17800000000000,2.8118395146758208864899983481224827167433541947751E-10
17900000000000,2.8414927332701910051145355964556221742088938315680E-10
18000000000000,2.8712789873883538282833218957242001936109014188911E-10
18100000000000,2.9011979309080483271160113998778617565638749649106E-10
18200000000000,2.9312492180796336127663800914117858308340978785978E-10
18300000000000,2.9614325035260255449314915630971487315413889096204E-10
18400000000000,2.9917474422426329988092959788766499140805030084015E-10
18500000000000,3.0221936895972937906630729389305799725127882209296E-10
18600000000000,3.0527709013302102621519607402503850175214520335162E-10
18700000000000,3.0834787335538845235876456237310615689599122975196E-10
18800000000000,3.1143168427530533562781150284160989767143652579803E-10
18900000000000,3.1452848857846227741202086297083161387806022178776E-10
19000000000000,3.1763825198776022446035300177102268352922671577148E-10
19100000000000,3.2076094026330385693891102709961115416597787332989E-10
19200000000000,3.2389651920239494246270423966665788912639189516859E-10
19300000000000,3.2704495463952565611781326361211006156331547981710E-10
19400000000000,3.3020621244637186649054409742350814187711135550947E-10
19500000000000,3.3338025853178638772024088341800296754920880682830E-10
19600000000000,3.3656705884179219759250968876171642686700044931990E-10
19700000000000,3.3976657935957562168968801570694739443124882290799E-10
19800000000000,3.4297878610547948361547711305823134419252732491395E-10
19900000000000,3.4620364513699622131073644449698990867149131437595E-10
20000000000000,3.4944112254876096947752188196707478010281480109910E-10
20100000000000,3.5269118447254460812853133351597684091975610337383E-10
20200000000000,3.5595379707724677727920358446533519100116759816585E-10
20300000000000,3.5922892656888885779979812821658356276696419587890E-10
20400000000000,3.6251653919060691844486568805050005396550204561897E-10
20500000000000,3.6581660122264462907760098362091353010385455907795E-10
20600000000000,3.6912907898234614010665107514114859592844347466759E-10
20700000000000,3.7245393882414892815303432418569359701091057619266E-10
20800000000000,3.7579114713957660796490664224823829328508061941658E-10
20900000000000,3.7914067035723171059799325638028993279603408214365E-10
21000000000000,3.8250247494278842787958570505213537552215683185185E-10
21100000000000,3.8587652739898532317408518650052820422585481706297E-10
21200000000000,3.8926279426561800846815471592615949671093054534427E-10
21300000000000,3.9266124211953178779362380665019771082813470283464E-10
21400000000000,3.9607183757461426700637057340489998959982567863421E-10
21500000000000,3.9949454728178792993948726299091356075047520728315E-10
21600000000000,4.0292933792900268094911624825627954487238069759424E-10
21700000000000,4.0637617624122835387142447541267042593361285836247E-10
21800000000000,4.0983502898044718740926523177685689777989877781173E-10
21900000000000,4.1330586294564626696715690078410412209794889440287E-10
22000000000000,4.1678864497280993295328909323991200089643075774380E-10
22100000000000,4.2028334193491215556734718793248722430869806740388E-10
22200000000000,4.2378992074190887609302688059629482123244753450164E-10
22300000000000,4.2730834834073031471419082747319371908101720770278E-10
22400000000000,4.3083859171527324487369987803870810287485835827686E-10
22500000000000,4.3438061788639323419403172052410343793526834623826E-10
22600000000000,4.3793439391189685197888001334778965874487818224102E-10
22700000000000,4.4149988688653384331500724515032038603702453994538E-10
22800000000000,4.4507706394198926979370465548454354382071295157798E-10
22900000000000,4.4866589224687561687129255702542599394385477867352E-10
23000000000000,4.5226633900672486788817432811235841215373631988237E-10
23100000000000,4.5587837146398054476603719120047913550455838747665E-10
23200000000000,4.5950195689798971540287265805736844288232891364328E-10
23300000000000,4.6313706262499496778556920597848967061763561182119E-10
23400000000000,4.6678365599812635083990935059062521574149233623066E-10
23500000000000,4.7044170440739328203788279964941272221631868902090E-10
23600000000000,4.7411117527967642178230680829757469753775510280687E-10
23700000000000,4.7779203607871951458882420921770667213859793615330E-10
23800000000000,4.8148425430512119708542886067120792931864581157717E-10
23900000000000,4.8518779749632677284974744124727971255853345779262E-10
24000000000000,4.8890263322661995410438562193756718831268114686123E-10
24100000000000,4.9262872910711457029072566358818728269136785633372E-10
24200000000000,4.9636605278574624354164142054728607520889388631183E-10
24300000000000,5.0011457194726403107367557910914708108511427375593E-10
24400000000000,5.0387425431322203451930272184198676918578100320486E-10
24500000000000,5.0764506764197097621998048576321007051096384615753E-10
24600000000000,5.1142697972864974250076967328086501045133494758999E-10
24700000000000,5.1521995840517689394738267954166688611872739001185E-10
24800000000000,5.1902397154024214270659801800312171150441764920295E-10
24900000000000,5.2283898703929779683105705736935903471874044432690E-10
25000000000000,5.2666497284455017168953732718721051726650198493589E-10
25100000000000,5.3050189693495096846387490608130122668204407747883E-10
25200000000000,5.3434972732618861975378647550544913504407274122629E-10
25300000000000,5.3820843207067960231091960269402565462356214323295E-10
25400000000000,5.4207797925755971692353770890318588578818103723917E-10
25500000000000,5.4595833701267533547332398273064197058510571268453E-10
25600000000000,5.4984947349857461518586621298707933638421828846167E-10
25700000000000,5.5375135691449868009646214095610066744743980939301E-10
25800000000000,5.5766395549637276975296246761696909789593513270295E-10
25900000000000,5.6158723751679735517744609721020102012700199586021E-10
26000000000000,5.6552117128503922210859955409557014330284569601752E-10
26100000000000,5.6946572514702252154674977488121930856697318845750E-10
26200000000000,5.7342086748531978762357665198777929872985996156781E-10
26300000000000,5.7738656671914292281860878784966336902344690105801E-10
26400000000000,5.8136279130433415054468291054459777235853029821229E-10
26500000000000,5.8534950973335693512462430148007558470190075693459E-10
26600000000000,5.8934669053528686918148239355045692925604442793765E-10
26700000000000,5.9335430227580252846473241361011809206837676479906E-10
26800000000000,5.9737231355717629413493056588617313255912651629587E-10
26900000000000,6.0140069301826514252938678277921751918077505618122E-10
27000000000000,6.0543940933450140243149550607320384697539710113043E-10
27100000000000,6.0948843121788347986644130459745298654059782223407E-10
27200000000000,6.1354772741696655044607238355699831420875272739707E-10
27300000000000,6.1761726671685321928581119577459598527089359997154E-10
27400000000000,6.2169701793918414851654742567202398587929530827322E-10
27500000000000,6.2578694994212865241453458266352550897855698156952E-10
27600000000000,6.2988703162037526017238731144479341689117505269167E-10
27700000000000,6.3399723190512224633435230214168601576642315753995E-10
27800000000000,6.3811751976406812891910136313943404258243999557643E-10
27900000000000,6.4224786420140213525337080335155041010069639605725E-10
28000000000000,6.4638823425779463553984675841467706820378922455223E-10
28100000000000,6.5053859901038754418277148651847161240755164739009E-10
28200000000000,6.5469892757278468889482095400621102919943068860386E-10
